 # Frequency[cm^-1] DOS PDOS
 -9.6361352872E+00  0.0000000000E+00  0.0000E+00  0.0000E+00  0.0000E+00  0.0000E+00  0.0000E+00  0.0000E+00  0.0000E+00  0.0000E+00  0.0000E+00  0.0000E+00
 -8.6361352872E+00  5.3836925149E-08  4.2228E-09  4.2277E-09  4.2277E-09  4.2281E-09  4.2281E-09  4.2228E-09  7.1200E-09  7.1200E-09  7.1200E-09  7.1200E-09
 -7.6361352872E+00  2.1623951965E-07  1.6959E-08  1.6977E-08  1.6977E-08  1.6978E-08  1.6978E-08  1.6959E-08  2.8603E-08  2.8603E-08  2.8603E-08  2.8603E-08
 -6.6361352872E+00  4.8720988157E-07  3.8203E-08  3.8243E-08  3.8243E-08  3.8246E-08  3.8246E-08  3.8203E-08  6.4456E-08  6.4456E-08  6.4456E-08  6.4456E-08
 -5.6361352872E+00  8.6674801092E-07  6.7953E-08  6.8021E-08  6.8021E-08  6.8025E-08  6.8025E-08  6.7953E-08  1.1469E-07  1.1469E-07  1.1469E-07  1.1469E-07
 -4.6361352872E+00  1.3548539077E-06  1.0620E-07  1.0630E-07  1.0630E-07  1.0631E-07  1.0631E-07  1.0620E-07  1.7930E-07  1.7930E-07  1.7930E-07  1.7930E-07
 -3.6361352872E+00  1.9515275719E-06  1.5295E-07  1.5309E-07  1.5309E-07  1.5310E-07  1.5310E-07  1.5295E-07  2.5831E-07  2.5831E-07  2.5831E-07  2.5831E-07
 -2.6361352872E+00  2.6567690035E-06  2.0818E-07  2.0837E-07  2.0837E-07  2.0838E-07  2.0838E-07  2.0818E-07  3.5172E-07  3.5172E-07  3.5172E-07  3.5172E-07
 -1.6361352872E+00  3.4705782026E-06  2.7190E-07  2.7215E-07  2.7215E-07  2.7216E-07  2.7216E-07  2.7190E-07  4.5954E-07  4.5954E-07  4.5954E-07  4.5954E-07
 -6.3613528717E-01  4.3976417461E-06  3.4448E-07  3.4477E-07  3.4477E-07  3.4478E-07  3.4478E-07  3.4448E-07  5.8240E-07  5.8239E-07  5.8239E-07  5.8240E-07
  3.6386471283E-01  5.4505478028E-06  4.2688E-07  4.2723E-07  4.2723E-07  4.2724E-07  4.2724E-07  4.2688E-07  7.2196E-07  7.2196E-07  7.2196E-07  7.2196E-07
  1.3638647128E+00  6.6299893619E-06  5.1916E-07  5.1958E-07  5.1958E-07  5.1958E-07  5.1958E-07  5.1916E-07  8.7834E-07  8.7834E-07  8.7834E-07  8.7834E-07
  2.3638647128E+00  7.9359664234E-06  6.2131E-07  6.2180E-07  6.2180E-07  6.2180E-07  6.2180E-07  6.2131E-07  1.0515E-06  1.0515E-06  1.0515E-06  1.0515E-06
  3.3638647128E+00  9.3684789873E-06  7.3334E-07  7.3389E-07  7.3389E-07  7.3389E-07  7.3389E-07  7.3334E-07  1.2416E-06  1.2416E-06  1.2416E-06  1.2416E-06
  4.3638647128E+00  1.0927527054E-05  8.5523E-07  8.5585E-07  8.5585E-07  8.5584E-07  8.5584E-07  8.5523E-07  1.4484E-06  1.4484E-06  1.4484E-06  1.4484E-06
  5.3638647128E+00  1.2613110622E-05  9.8698E-07  9.8768E-07  9.8768E-07  9.8765E-07  9.8765E-07  9.8698E-07  1.6721E-06  1.6721E-06  1.6721E-06  1.6721E-06
  6.3638647128E+00  1.4425229694E-05  1.1286E-06  1.1294E-06  1.1294E-06  1.1293E-06  1.1293E-06  1.1286E-06  1.9127E-06  1.9127E-06  1.9127E-06  1.9127E-06
  7.3638647128E+00  1.6363884267E-05  1.2801E-06  1.2809E-06  1.2809E-06  1.2808E-06  1.2808E-06  1.2801E-06  2.1701E-06  2.1701E-06  2.1701E-06  2.1701E-06
  8.3638647128E+00  1.8429074343E-05  1.4414E-06  1.4423E-06  1.4423E-06  1.4422E-06  1.4422E-06  1.4414E-06  2.4444E-06  2.4443E-06  2.4443E-06  2.4444E-06
  9.3638647128E+00  2.0620799921E-05  1.6125E-06  1.6135E-06  1.6135E-06  1.6134E-06  1.6134E-06  1.6125E-06  2.7355E-06  2.7355E-06  2.7355E-06  2.7355E-06
  1.0363864713E+01  2.2939061002E-05  1.7935E-06  1.7946E-06  1.7946E-06  1.7944E-06  1.7944E-06  1.7935E-06  3.0435E-06  3.0435E-06  3.0435E-06  3.0435E-06
  1.1363864713E+01  2.5383857585E-05  1.9843E-06  1.9855E-06  1.9855E-06  1.9853E-06  1.9853E-06  1.9843E-06  3.3684E-06  3.3684E-06  3.3684E-06  3.3684E-06
  1.2363864713E+01  2.7955189671E-05  2.1850E-06  2.1862E-06  2.1862E-06  2.1860E-06  2.1860E-06  2.1850E-06  3.7102E-06  3.7102E-06  3.7102E-06  3.7102E-06
  1.3363864713E+01  3.0653057259E-05  2.3955E-06  2.3968E-06  2.3968E-06  2.3965E-06  2.3965E-06  2.3955E-06  4.0689E-06  4.0689E-06  4.0689E-06  4.0689E-06
  1.4363864713E+01  3.3477460349E-05  2.6158E-06  2.6171E-06  2.6171E-06  2.6168E-06  2.6168E-06  2.6158E-06  4.4445E-06  4.4445E-06  4.4445E-06  4.4445E-06
  1.5363864713E+01  3.6428398942E-05  2.8459E-06  2.8473E-06  2.8473E-06  2.8469E-06  2.8469E-06  2.8459E-06  4.8371E-06  4.8370E-06  4.8370E-06  4.8371E-06
  1.6363864713E+01  3.9505873037E-05  3.0858E-06  3.0873E-06  3.0873E-06  3.0868E-06  3.0868E-06  3.0858E-06  5.2465E-06  5.2465E-06  5.2465E-06  5.2465E-06
  1.7363864713E+01  4.2709882635E-05  3.3355E-06  3.3371E-06  3.3371E-06  3.3365E-06  3.3365E-06  3.3355E-06  5.6729E-06  5.6728E-06  5.6728E-06  5.6729E-06
  1.8363864713E+01  4.6040427735E-05  3.5951E-06  3.5967E-06  3.5967E-06  3.5960E-06  3.5960E-06  3.5951E-06  6.1162E-06  6.1162E-06  6.1162E-06  6.1162E-06
  1.9363864713E+01  4.9497508338E-05  3.8644E-06  3.8661E-06  3.8661E-06  3.8653E-06  3.8653E-06  3.8644E-06  6.5765E-06  6.5764E-06  6.5764E-06  6.5765E-06
  2.0363864713E+01  5.3081124442E-05  4.1435E-06  4.1453E-06  4.1453E-06  4.1444E-06  4.1444E-06  4.1435E-06  7.0537E-06  7.0536E-06  7.0536E-06  7.0537E-06
  2.1363864713E+01  5.6791276050E-05  4.4325E-06  4.4343E-06  4.4343E-06  4.4332E-06  4.4332E-06  4.4325E-06  7.5479E-06  7.5478E-06  7.5478E-06  7.5479E-06
  2.2363864713E+01  6.0627963159E-05  4.7312E-06  4.7330E-06  4.7330E-06  4.7318E-06  4.7318E-06  4.7312E-06  8.0590E-06  8.0589E-06  8.0589E-06  8.0590E-06
  2.3363864713E+01  6.4591185772E-05  5.0396E-06  5.0416E-06  5.0416E-06  5.0402E-06  5.0402E-06  5.0396E-06  8.5872E-06  8.5870E-06  8.5870E-06  8.5872E-06
  2.4363864713E+01  6.8680943886E-05  5.3579E-06  5.3598E-06  5.3598E-06  5.3583E-06  5.3583E-06  5.3579E-06  9.1323E-06  9.1321E-06  9.1321E-06  9.1323E-06
  2.5363864713E+01  7.2897237503E-05  5.6859E-06  5.6879E-06  5.6879E-06  5.6862E-06  5.6862E-06  5.6859E-06  9.6944E-06  9.6942E-06  9.6942E-06  9.6944E-06
  2.6363864713E+01  7.7240066622E-05  6.0237E-06  6.0257E-06  6.0257E-06  6.0238E-06  6.0238E-06  6.0237E-06  1.0273E-05  1.0273E-05  1.0273E-05  1.0273E-05
  2.7363864713E+01  8.1709431244E-05  6.3712E-06  6.3733E-06  6.3733E-06  6.3712E-06  6.3712E-06  6.3712E-06  1.0870E-05  1.0869E-05  1.0869E-05  1.0870E-05
  2.8363864713E+01  8.7520071762E-05  6.8235E-06  6.8261E-06  6.8261E-06  6.8233E-06  6.8233E-06  6.8235E-06  1.1644E-05  1.1643E-05  1.1643E-05  1.1644E-05
  2.9363864713E+01  1.1996157321E-04  9.3571E-06  9.3545E-06  9.3545E-06  9.3561E-06  9.3561E-06  9.3571E-06  1.5957E-05  1.5956E-05  1.5956E-05  1.5957E-05
  3.0363864713E+01  1.6331874205E-04  1.2743E-05  1.2732E-05  1.2732E-05  1.2742E-05  1.2742E-05  1.2743E-05  2.1721E-05  2.1721E-05  2.1721E-05  2.1721E-05
  3.1363864713E+01  2.1809418614E-04  1.7021E-05  1.7001E-05  1.7001E-05  1.7021E-05  1.7021E-05  1.7021E-05  2.9002E-05  2.9002E-05  2.9002E-05  2.9002E-05
  3.2363864713E+01  2.6474928663E-04  2.0663E-05  2.0641E-05  2.0641E-05  2.0663E-05  2.0663E-05  2.0663E-05  3.5205E-05  3.5204E-05  3.5204E-05  3.5205E-05
  3.3363864713E+01  3.0168584479E-04  2.3543E-05  2.3524E-05  2.3524E-05  2.3543E-05  2.3543E-05  2.3543E-05  4.0117E-05  4.0116E-05  4.0116E-05  4.0117E-05
  3.4363864713E+01  3.2890386062E-04  2.5662E-05  2.5649E-05  2.5649E-05  2.5662E-05  2.5662E-05  2.5662E-05  4.3740E-05  4.3739E-05  4.3739E-05  4.3740E-05
  3.5363864713E+01  3.4640333414E-04  2.7019E-05  2.7014E-05  2.7014E-05  2.7020E-05  2.7020E-05  2.7019E-05  4.6075E-05  4.6074E-05  4.6074E-05  4.6075E-05
  3.6363864713E+01  3.5418426533E-04  2.7615E-05  2.7615E-05  2.7615E-05  2.7616E-05  2.7616E-05  2.7615E-05  4.7123E-05  4.7122E-05  4.7122E-05  4.7123E-05
  3.7363864713E+01  3.5224665420E-04  2.7450E-05  2.7450E-05  2.7450E-05  2.7451E-05  2.7451E-05  2.7450E-05  4.6886E-05  4.6885E-05  4.6885E-05  4.6886E-05
  3.8363864713E+01  3.5752560792E-04  2.7844E-05  2.7848E-05  2.7848E-05  2.7845E-05  2.7845E-05  2.7844E-05  4.7614E-05  4.7613E-05  4.7613E-05  4.7614E-05
  3.9363864713E+01  3.7380360713E-04  2.9097E-05  2.9103E-05  2.9103E-05  2.9098E-05  2.9098E-05  2.9097E-05  4.9803E-05  4.9801E-05  4.9801E-05  4.9803E-05
  4.0363864713E+01  3.9386723335E-04  3.0645E-05  3.0653E-05  3.0653E-05  3.0646E-05  3.0646E-05  3.0645E-05  5.2496E-05  5.2494E-05  5.2494E-05  5.2496E-05
  4.1363864713E+01  4.1435365331E-04  3.2224E-05  3.2234E-05  3.2234E-05  3.2226E-05  3.2226E-05  3.2224E-05  5.5247E-05  5.5246E-05  5.5246E-05  5.5247E-05
  4.2363864713E+01  4.3526286702E-04  3.3835E-05  3.3846E-05  3.3846E-05  3.3837E-05  3.3837E-05  3.3835E-05  5.8057E-05  5.8056E-05  5.8056E-05  5.8057E-05
  4.3363864713E+01  4.5659487446E-04  3.5477E-05  3.5490E-05  3.5490E-05  3.5480E-05  3.5480E-05  3.5477E-05  6.0926E-05  6.0924E-05  6.0924E-05  6.0926E-05
  4.4363864713E+01  4.7834967565E-04  3.7151E-05  3.7164E-05  3.7164E-05  3.7154E-05  3.7154E-05  3.7151E-05  6.3853E-05  6.3852E-05  6.3852E-05  6.3853E-05
  4.5363864713E+01  5.0032215577E-04  3.8841E-05  3.8854E-05  3.8854E-05  3.8844E-05  3.8844E-05  3.8841E-05  6.6812E-05  6.6810E-05  6.6810E-05  6.6812E-05
  4.6363864713E+01  5.2398326502E-04  4.0659E-05  4.0673E-05  4.0673E-05  4.0664E-05  4.0664E-05  4.0659E-05  6.9999E-05  6.9997E-05  6.9997E-05  6.9999E-05
  4.7363864713E+01  5.5041948050E-04  4.2692E-05  4.2704E-05  4.2704E-05  4.2697E-05  4.2697E-05  4.2692E-05  7.3559E-05  7.3557E-05  7.3557E-05  7.3559E-05
  4.8363864713E+01  5.7723937810E-04  4.4753E-05  4.4765E-05  4.4765E-05  4.4759E-05  4.4759E-05  4.4753E-05  7.7173E-05  7.7170E-05  7.7170E-05  7.7173E-05
  4.9363864713E+01  6.0444295781E-04  4.6843E-05  4.6853E-05  4.6853E-05  4.6848E-05  4.6848E-05  4.6843E-05  8.0840E-05  8.0837E-05  8.0837E-05  8.0840E-05
  5.0363864713E+01  6.3203021964E-04  4.8959E-05  4.8971E-05  4.8971E-05  4.8966E-05  4.8966E-05  4.8959E-05  8.4561E-05  8.4558E-05  8.4558E-05  8.4561E-05
  5.1363864713E+01  6.6000116359E-04  5.1104E-05  5.1118E-05  5.1118E-05  5.1111E-05  5.1111E-05  5.1104E-05  8.8336E-05  8.8333E-05  8.8333E-05  8.8336E-05
  5.2363864713E+01  6.8835578966E-04  5.3275E-05  5.3293E-05  5.3293E-05  5.3283E-05  5.3283E-05  5.3275E-05  9.2165E-05  9.2162E-05  9.2162E-05  9.2165E-05
  5.3363864713E+01  7.2112848498E-04  5.5790E-05  5.5813E-05  5.5813E-05  5.5798E-05  5.5798E-05  5.5790E-05  9.6584E-05  9.6580E-05  9.6580E-05  9.6584E-05
  5.4363864713E+01  7.8143021797E-04  6.0455E-05  6.0484E-05  6.0484E-05  6.0463E-05  6.0463E-05  6.0455E-05  1.0466E-04  1.0465E-04  1.0465E-04  1.0466E-04
  5.5363864713E+01  8.5680395445E-04  6.6296E-05  6.6332E-05  6.6332E-05  6.6305E-05  6.6305E-05  6.6296E-05  1.1474E-04  1.1473E-04  1.1473E-04  1.1474E-04
  5.6363864713E+01  9.9294297008E-04  7.6888E-05  7.6937E-05  7.6937E-05  7.6899E-05  7.6899E-05  7.6888E-05  1.3288E-04  1.3287E-04  1.3287E-04  1.3288E-04
  5.7363864713E+01  1.0577068769E-03  8.1880E-05  8.1937E-05  8.1937E-05  8.1892E-05  8.1892E-05  8.1880E-05  1.4158E-04  1.4157E-04  1.4157E-04  1.4158E-04
  5.8363864713E+01  1.0322854152E-03  7.9831E-05  7.9868E-05  7.9868E-05  7.9845E-05  7.9845E-05  7.9831E-05  1.3830E-04  1.3830E-04  1.3830E-04  1.3830E-04
  5.9363864713E+01  1.0252319308E-03  7.9216E-05  7.9240E-05  7.9240E-05  7.9230E-05  7.9230E-05  7.9216E-05  1.3747E-04  1.3746E-04  1.3746E-04  1.3747E-04
  6.0363864713E+01  1.0476927508E-03  8.0895E-05  8.0927E-05  8.0927E-05  8.0910E-05  8.0910E-05  8.0895E-05  1.4056E-04  1.4055E-04  1.4055E-04  1.4056E-04
  6.1363864713E+01  1.0551207368E-03  8.1394E-05  8.1435E-05  8.1435E-05  8.1409E-05  8.1409E-05  8.1394E-05  1.4166E-04  1.4166E-04  1.4166E-04  1.4166E-04
  6.2363864713E+01  1.0894428920E-03  8.3992E-05  8.4037E-05  8.4037E-05  8.4009E-05  8.4009E-05  8.3992E-05  1.4635E-04  1.4634E-04  1.4634E-04  1.4635E-04
  6.3363864713E+01  1.1271929266E-03  8.6850E-05  8.6901E-05  8.6901E-05  8.6868E-05  8.6868E-05  8.6850E-05  1.5149E-04  1.5148E-04  1.5148E-04  1.5149E-04
  6.4363864713E+01  1.1661183577E-03  8.9794E-05  8.9851E-05  8.9851E-05  8.9813E-05  8.9813E-05  8.9794E-05  1.5681E-04  1.5680E-04  1.5680E-04  1.5681E-04
  6.5363864713E+01  1.2055637731E-03  9.2774E-05  9.2836E-05  9.2836E-05  9.2793E-05  9.2793E-05  9.2774E-05  1.6219E-04  1.6218E-04  1.6218E-04  1.6219E-04
  6.6363864713E+01  1.2458214175E-03  9.5812E-05  9.5877E-05  9.5877E-05  9.5832E-05  9.5832E-05  9.5812E-05  1.6770E-04  1.6769E-04  1.6769E-04  1.6770E-04
  6.7363864713E+01  1.2869234418E-03  9.8910E-05  9.8978E-05  9.8978E-05  9.8932E-05  9.8932E-05  9.8910E-05  1.7333E-04  1.7332E-04  1.7332E-04  1.7333E-04
  6.8363864713E+01  1.3288698459E-03  1.0207E-04  1.0214E-04  1.0214E-04  1.0209E-04  1.0209E-04  1.0207E-04  1.7907E-04  1.7906E-04  1.7906E-04  1.7907E-04
  6.9363864713E+01  1.3716606298E-03  1.0529E-04  1.0536E-04  1.0536E-04  1.0531E-04  1.0531E-04  1.0529E-04  1.8494E-04  1.8493E-04  1.8493E-04  1.8494E-04
  7.0363864713E+01  1.4158692434E-03  1.0861E-04  1.0868E-04  1.0868E-04  1.0864E-04  1.0864E-04  1.0861E-04  1.9101E-04  1.9100E-04  1.9100E-04  1.9101E-04
  7.1363864713E+01  1.4608601759E-03  1.1199E-04  1.1205E-04  1.1205E-04  1.1201E-04  1.1201E-04  1.1199E-04  1.9719E-04  1.9718E-04  1.9718E-04  1.9719E-04
  7.2363864713E+01  1.5043197331E-03  1.1524E-04  1.1531E-04  1.1531E-04  1.1527E-04  1.1527E-04  1.1524E-04  2.0317E-04  2.0316E-04  2.0316E-04  2.0317E-04
  7.3363864713E+01  1.5461509069E-03  1.1836E-04  1.1846E-04  1.1846E-04  1.1839E-04  1.1839E-04  1.1836E-04  2.0894E-04  2.0892E-04  2.0892E-04  2.0894E-04
  7.4363864713E+01  1.5867265329E-03  1.2139E-04  1.2150E-04  1.2150E-04  1.2142E-04  1.2142E-04  1.2139E-04  2.1454E-04  2.1452E-04  2.1452E-04  2.1454E-04
  7.5363864713E+01  1.6268072177E-03  1.2437E-04  1.2450E-04  1.2450E-04  1.2440E-04  1.2440E-04  1.2437E-04  2.2007E-04  2.2006E-04  2.2006E-04  2.2007E-04
  7.6363864713E+01  1.6669306923E-03  1.2735E-04  1.2750E-04  1.2750E-04  1.2739E-04  1.2739E-04  1.2735E-04  2.2562E-04  2.2560E-04  2.2560E-04  2.2562E-04
  7.7363864713E+01  1.7071508344E-03  1.3034E-04  1.3049E-04  1.3049E-04  1.3038E-04  1.3038E-04  1.3034E-04  2.3119E-04  2.3117E-04  2.3117E-04  2.3119E-04
  7.8363864713E+01  1.7504287560E-03  1.3356E-04  1.3371E-04  1.3371E-04  1.3360E-04  1.3360E-04  1.3356E-04  2.3718E-04  2.3716E-04  2.3716E-04  2.3718E-04
  7.9363864713E+01  1.7962268625E-03  1.3697E-04  1.3712E-04  1.3712E-04  1.3701E-04  1.3701E-04  1.3697E-04  2.4352E-04  2.4350E-04  2.4350E-04  2.4352E-04
  8.0363864713E+01  1.8494693191E-03  1.4095E-04  1.4110E-04  1.4110E-04  1.4099E-04  1.4099E-04  1.4095E-04  2.5086E-04  2.5084E-04  2.5084E-04  2.5086E-04
  8.1363864713E+01  1.9265833102E-03  1.4677E-04  1.4694E-04  1.4694E-04  1.4682E-04  1.4682E-04  1.4677E-04  2.6140E-04  2.6137E-04  2.6137E-04  2.6140E-04
  8.2363864713E+01  1.9981700484E-03  1.5215E-04  1.5233E-04  1.5233E-04  1.5220E-04  1.5220E-04  1.5215E-04  2.7121E-04  2.7119E-04  2.7119E-04  2.7121E-04
  8.3363864713E+01  2.0624936620E-03  1.5696E-04  1.5714E-04  1.5714E-04  1.5701E-04  1.5701E-04  1.5696E-04  2.8008E-04  2.8005E-04  2.8005E-04  2.8008E-04
  8.4363864713E+01  2.1221338662E-03  1.6140E-04  1.6157E-04  1.6157E-04  1.6145E-04  1.6145E-04  1.6140E-04  2.8834E-04  2.8831E-04  2.8831E-04  2.8834E-04
  8.5363864713E+01  2.1783089561E-03  1.6554E-04  1.6572E-04  1.6572E-04  1.6560E-04  1.6560E-04  1.6554E-04  2.9616E-04  2.9613E-04  2.9613E-04  2.9616E-04
  8.6363864713E+01  2.2415840632E-03  1.7023E-04  1.7039E-04  1.7039E-04  1.7029E-04  1.7029E-04  1.7023E-04  3.0495E-04  3.0492E-04  3.0492E-04  3.0495E-04
  8.7363864713E+01  2.2610855404E-03  1.7152E-04  1.7168E-04  1.7168E-04  1.7158E-04  1.7158E-04  1.7152E-04  3.0789E-04  3.0786E-04  3.0786E-04  3.0789E-04
  8.8363864713E+01  2.3265244930E-03  1.7636E-04  1.7651E-04  1.7651E-04  1.7642E-04  1.7642E-04  1.7636E-04  3.1700E-04  3.1697E-04  3.1697E-04  3.1700E-04
  8.9363864713E+01  2.3933826782E-03  1.8129E-04  1.8145E-04  1.8145E-04  1.8136E-04  1.8136E-04  1.8129E-04  3.2632E-04  3.2628E-04  3.2628E-04  3.2632E-04
  9.0363864713E+01  2.4614463628E-03  1.8630E-04  1.8645E-04  1.8645E-04  1.8637E-04  1.8637E-04  1.8630E-04  3.3582E-04  3.3579E-04  3.3579E-04  3.3582E-04
  9.1363864713E+01  2.5306076617E-03  1.9138E-04  1.9152E-04  1.9152E-04  1.9145E-04  1.9145E-04  1.9138E-04  3.4550E-04  3.4546E-04  3.4546E-04  3.4550E-04
  9.2363864713E+01  2.6008219834E-03  1.9652E-04  1.9666E-04  1.9666E-04  1.9660E-04  1.9660E-04  1.9652E-04  3.5534E-04  3.5530E-04  3.5530E-04  3.5534E-04
  9.3363864713E+01  2.6686968507E-03  2.0147E-04  2.0161E-04  2.0161E-04  2.0155E-04  2.0155E-04  2.0147E-04  3.6488E-04  3.6484E-04  3.6484E-04  3.6488E-04
  9.4363864713E+01  2.7333286039E-03  2.0617E-04  2.0631E-04  2.0631E-04  2.0625E-04  2.0625E-04  2.0617E-04  3.7399E-04  3.7395E-04  3.7395E-04  3.7399E-04
  9.5363864713E+01  2.7949121881E-03  2.1062E-04  2.1078E-04  2.1078E-04  2.1071E-04  2.1071E-04  2.1062E-04  3.8269E-04  3.8265E-04  3.8265E-04  3.8269E-04
  9.6363864713E+01  2.8538557802E-03  2.1486E-04  2.1505E-04  2.1505E-04  2.1495E-04  2.1495E-04  2.1486E-04  3.9106E-04  3.9101E-04  3.9101E-04  3.9106E-04
  9.7363864713E+01  2.9083509617E-03  2.1874E-04  2.1899E-04  2.1899E-04  2.1883E-04  2.1883E-04  2.1874E-04  3.9883E-04  3.9879E-04  3.9879E-04  3.9883E-04
  9.8363864713E+01  2.9562939215E-03  2.2213E-04  2.2242E-04  2.2242E-04  2.2223E-04  2.2223E-04  2.2213E-04  4.0571E-04  4.0566E-04  4.0566E-04  4.0571E-04
  9.9363864713E+01  3.0109334035E-03  2.2601E-04  2.2634E-04  2.2634E-04  2.2612E-04  2.2612E-04  2.2601E-04  4.1352E-04  4.1348E-04  4.1348E-04  4.1352E-04
  1.0036386471E+02  3.0713620648E-03  2.3032E-04  2.3068E-04  2.3068E-04  2.3043E-04  2.3043E-04  2.3032E-04  4.2215E-04  4.2210E-04  4.2210E-04  4.2215E-04
  1.0136386471E+02  3.1337916736E-03  2.3478E-04  2.3516E-04  2.3516E-04  2.3489E-04  2.3489E-04  2.3478E-04  4.3106E-04  4.3101E-04  4.3101E-04  4.3106E-04
  1.0236386471E+02  3.1966776667E-03  2.3925E-04  2.3966E-04  2.3966E-04  2.3937E-04  2.3937E-04  2.3925E-04  4.4005E-04  4.4000E-04  4.4000E-04  4.4005E-04
  1.0336386471E+02  3.2616871513E-03  2.4388E-04  2.4431E-04  2.4431E-04  2.4400E-04  2.4400E-04  2.4388E-04  4.4936E-04  4.4930E-04  4.4930E-04  4.4936E-04
  1.0436386471E+02  3.3289638220E-03  2.4867E-04  2.4911E-04  2.4911E-04  2.4879E-04  2.4879E-04  2.4867E-04  4.5898E-04  4.5893E-04  4.5893E-04  4.5898E-04
  1.0536386471E+02  3.3981331501E-03  2.5359E-04  2.5405E-04  2.5405E-04  2.5372E-04  2.5372E-04  2.5359E-04  4.6888E-04  4.6882E-04  4.6882E-04  4.6888E-04
  1.0636386471E+02  3.4687271842E-03  2.5861E-04  2.5908E-04  2.5908E-04  2.5874E-04  2.5874E-04  2.5861E-04  4.7900E-04  4.7893E-04  4.7893E-04  4.7900E-04
  1.0736386471E+02  3.5632951126E-03  2.6546E-04  2.6594E-04  2.6594E-04  2.6560E-04  2.6560E-04  2.6546E-04  4.9235E-04  4.9229E-04  4.9229E-04  4.9235E-04
  1.0836386471E+02  3.6650666041E-03  2.7285E-04  2.7334E-04  2.7334E-04  2.7299E-04  2.7299E-04  2.7285E-04  5.0671E-04  5.0664E-04  5.0664E-04  5.0671E-04
  1.0936386471E+02  3.7577870698E-03  2.7952E-04  2.8001E-04  2.8001E-04  2.7967E-04  2.7967E-04  2.7952E-04  5.1988E-04  5.1981E-04  5.1981E-04  5.1988E-04
  1.1036386471E+02  3.8416471055E-03  2.8548E-04  2.8596E-04  2.8596E-04  2.8563E-04  2.8563E-04  2.8548E-04  5.3191E-04  5.3184E-04  5.3184E-04  5.3191E-04
  1.1136386471E+02  3.9261132325E-03  2.9146E-04  2.9191E-04  2.9191E-04  2.9162E-04  2.9162E-04  2.9146E-04  5.4408E-04  5.4400E-04  5.4400E-04  5.4408E-04
  1.1236386471E+02  4.0143339331E-03  2.9769E-04  2.9812E-04  2.9812E-04  2.9786E-04  2.9786E-04  2.9769E-04  5.5679E-04  5.5671E-04  5.5671E-04  5.5679E-04
  1.1336386471E+02  4.1080711340E-03  3.0431E-04  3.0471E-04  3.0471E-04  3.0449E-04  3.0449E-04  3.0431E-04  5.7031E-04  5.7022E-04  5.7022E-04  5.7031E-04
  1.1436386471E+02  4.1584788662E-03  3.0758E-04  3.0799E-04  3.0799E-04  3.0776E-04  3.0776E-04  3.0758E-04  5.7800E-04  5.7791E-04  5.7791E-04  5.7800E-04
  1.1536386471E+02  4.2500680728E-03  3.1399E-04  3.1441E-04  3.1441E-04  3.1417E-04  3.1417E-04  3.1399E-04  5.9128E-04  5.9119E-04  5.9119E-04  5.9128E-04
  1.1636386471E+02  4.3394908351E-03  3.2021E-04  3.2067E-04  3.2067E-04  3.2041E-04  3.2041E-04  3.2021E-04  6.0428E-04  6.0418E-04  6.0418E-04  6.0428E-04
